# m4 [GeV] CNH/Lambda^2 [GeV^-2], 1sigma from Z invisible decay (LEP) (PDG 2022, Workman:2022ynf). Assuming Majorana neutrinos.
0.001	1.8622536711327465e-6
0.001013115373946478	1.862253671150486e-6
0.0010264027609267119	1.8622536711686937e-6
0.0010398644169559632	1.862253671187382e-6
0.0010535026276379767	1.862253671206564e-6
0.001067319708553046	1.8622536712262522e-6
0.001081318005651165	1.8622536712464602e-6
0.00109549989565034	1.862253671267202e-6
0.0011098677864401216	1.8622536712884917e-6
0.0011244241174904336	1.862253671310343e-6
0.001139171360265759	1.8622536713327714e-6
0.0011541120186447638	1.8622536713557919e-6
0.0011692486293454142	1.8622536713794205e-6
0.0011845837623556863	1.8622536714036725e-6
0.0012001200213699068	1.8622536714285651e-6
0.0012158600442308282	1.862253671454115e-6
0.0012318065033774968	1.8622536714803394e-6
0.0012479621062989961	1.8622536715072558e-6
0.0012643295959941416	1.8622536715348832e-6
0.0012809117514372044	1.8622536715632404e-6
0.0012977113880497412	1.862253671592346e-6
0.0013147313581786165	1.86225367162222e-6
0.00133197455158029	1.8622536716528827e-6
0.0013494438959114577	1.8622536716843553e-6
0.0013671423572261287	1.8622536717166584e-6
0.0013850729404792186	1.8622536717498149e-6
0.0014032386900367515	1.8622536717838461e-6
0.0014216426901927494	1.8622536718187765e-6
0.001440288065692904	1.8622536718546293e-6
0.001459177982265116	1.8622536718914278e-6
0.0014783156471569901	1.8622536719291989e-6
0.0014977043096803836	1.8622536719679665e-6
0.001517347261763095	1.862253672007758e-6
0.0015372478385077824	1.8622536720486002e-6
0.001557409418758227	1.8622536720905205e-6
0.001577835425673008	1.862253672133548e-6
0.0015985293273067097	1.8622536721777111e-6
0.001619494637198749	1.8622536722230405e-6
0.0016407349149699262	1.8622536722695664e-6
0.0016622537669267997	1.862253672317321e-6
0.001684054846673986	1.8622536723663365e-6
0.0017061418557344941	1.862253672416646e-6
0.0017285185441781898	1.862253672468284e-6
0.0017511887112585086	1.862253672521285e-6
0.0017741562060575146	1.8622536725756858e-6
0.0017974249281394235	1.8622536726315226e-6
0.0018209988282126934	1.862253672688834e-6
0.001844881908800801	1.8622536727476582e-6
0.0018690782249218155	1.8622536728080356e-6
0.0018935918847768844	1.862253672870007e-6
0.0019184270504477492	1.8622536729336152e-6
0.001943587938603412	1.8622536729989024e-6
0.0019690788212160582	1.8622536730659133e-6
0.001994904026286399	1.8622536731346936e-6
0.0020210679385784793	1.8622536732052902e-6
0.0020475750003641734	1.86225367327775e-6
0.0020744297121774095	1.8622536733521238e-6
0.0021016366335783005	1.8622536734284605e-6
0.0021292003839272974	1.8622536735068132e-6
0.0021571256431694883	1.8622536735872345e-6
0.002185417152629193	1.862253673669779e-6
0.002214079715814972	1.862253673754503e-6
0.0022431181992351966	1.862253673841464e-6
0.0022725375332243165	1.862253673930721e-6
0.0023023427127799602	1.8622536740223346e-6
0.0023325387984110177	1.8622536741163671e-6
0.0023631309169968467	1.8622536742128825e-6
0.0023941242626577437	1.8622536743119457e-6
0.0024255240976368358	1.8622536744136246e-6
0.0024573357531935363	1.8622536745179882e-6
0.0024895646305087196	1.8622536746251072e-6
0.002522216201601767	1.8622536747350548e-6
0.0025552960102596415	1.862253674847905e-6
0.0025888096729781403	1.8622536749637348e-6
0.002622762879915508	1.862253675082623e-6
0.002657161395858541	1.86225367520465e-6
0.002692011061201371	1.8622536753298987e-6
0.0027273177929370822	1.8622536754584544e-6
0.002763087585662335	1.8622536755904043e-6
0.0027993265125951673	1.8622536757258383e-6
0.002836040726606143	1.862253675864848e-6
0.002873236461263024	1.862253676007528e-6
0.0029109200318891432	1.862253676153975e-6
0.002949097836635663	1.8622536763042886e-6
0.0029877763575678886	1.8622536764585708e-6
0.0030269621617658375	1.8622536766169265e-6
0.003066661902439236	1.8622536767794637e-6
0.0031068823200571436	1.862253676946292e-6
0.0031476302434923944	1.862253677117525e-6
0.0031889125911810407	1.862253677293279e-6
0.003230736372297012	1.8622536774736735e-6
0.003273108687942178	1.8622536776588308e-6
0.003316036732352002	1.8622536778488769e-6
0.0033595277941170587	1.8622536780439403e-6
0.003403589257420487	1.8622536782441543e-6
0.0034482286032917753	1.8622536784496543e-6
0.003493453410876888	1.8622536786605805e-6
0.003539271358725138	1.8622536788770751e-6
0.003585690226092877	1.8622536790992864e-6
0.003632717894264316	1.8622536793273644e-6
0.0036803623478896545	1.8622536795614644e-6
0.003728631676340765	1.8622536798017448e-6
0.003777534075084657	1.86225368004837e-6
0.0038270778470749552	1.8622536803015065e-6
0.003877271404161625	1.8622536805613262e-6
0.003928123268519191	1.8622536808280059e-6
0.003979642074093681	1.8622536811017273e-6
0.004031836568068556	1.8622536813826752e-6
0.00408471561234986	1.8622536816710406e-6
0.004138288185070845	1.8622536819670204e-6
0.004192563382116341	1.8622536822708143e-6
0.004247550418667107	1.8622536825826293e-6
0.004303258630764449	1.8622536829026771e-6
0.00435969747689533	1.8622536832311754e-6
0.004416876539598332	1.8622536835683468e-6
0.004474805527090586	1.86225368391442e-6
0.00453349427491615	1.862253684269631e-6
0.004592952747615892	1.8622536846342206e-6
0.004653191040419378	1.862253685008436e-6
0.0047142193809588786	1.862253685392532e-6
0.004776048131005888	1.8622536857867688e-6
0.0048386877882304075	1.862253686191415e-6
0.004902148987983306	1.8622536866067448e-6
0.004966442505102055	1.8622536870330402e-6
0.005031579255740152	1.8622536874705914e-6
0.005097570299220525	1.862253687919695e-6
0.005164426839913262	1.8622536883806563e-6
0.005232160229137951	1.862253688853788e-6
0.0053007819670909855	1.8622536893394116e-6
0.005370303704798131	1.8622536898378574e-6
0.005440737246092714	1.862253690349463e-6
0.005512094549619756	1.862253690874577e-6
0.005584387730866357	1.862253691413555e-6
0.005657629064218799	1.8622536919667636e-6
0.005731830985046485	1.8622536925345787e-6
0.005807006091813384	1.8622536931173854e-6
0.005883167148216992	1.8622536937155802e-6
0.005960327085355492	1.8622536943295686e-6
0.006038499003923251	1.8622536949597683e-6
0.006117696176435139	1.8622536956066067e-6
0.006197932049480024	1.8622536962705234e-6
0.006279220246003815	1.8622536969519694e-6
0.006361574567622451	1.8622536976514077e-6
0.0064450089969652225	1.862253698369313e-6
0.006529537700048837	1.862253699106173e-6
0.006615175028682602	1.862253699862488e-6
0.0067019355229051775	1.862253700638772e-6
0.006789833913453264	1.8622537014355518e-6
0.006878885124262681	1.8622537022533689e-6
0.00696910427500225	1.8622537030927787e-6
0.007060506683640903	1.8622537039543512e-6
0.0071531078690484605	1.8622537048386712e-6
0.007246923553630533	1.8622537057463402e-6
0.007341969665997928	1.8622537066779742e-6
0.007438262343671197	1.8622537076342058e-6
0.007535817935820442	1.8622537086156843e-6
0.007634653006041311	1.8622537096230769e-6
0.007734784335167145	1.8622537106570671e-6
0.007836228924118222	1.8622537117183575e-6
0.007939003996788239	1.8622537128076694e-6
0.008043127002968699	1.8622537139257416e-6
0.00814861562131165	1.862253715073334e-6
0.008255487762331263	1.8622537162512263e-6
0.008363761571444809	1.862253717460218e-6
0.00847345543205349	1.8622537187011309e-6
0.008584587968663687	1.862253719974807e-6
0.008697178050049147	1.8622537212821116e-6
0.008811244792454641	1.8622537226239325e-6
0.00892680756284164	1.8622537240011816e-6
0.009043885982176557	1.8622537254147936e-6
0.009162499928762112	1.8622537268657289e-6
0.009282669541612405	1.8622537283549729e-6
0.009404415223872233	1.8622537298835374e-6
0.009527757646281276	1.8622537314524597e-6
0.009652717750683661	1.862253733062806e-6
0.009779316753583692	1.86225373471567e-6
0.00990757614974799	1.8622537364121741e-6
0.010037517715855145	1.8622537381534708e-6
0.010169163514192983	1.8622537399407423e-6
0.010302535896404504	1.8622537417752028e-6
0.010437657507282866	1.8622537436580982e-6
0.010574551288616145	1.862253745590707e-6
0.010713240483082555	1.8622537475743423e-6
0.01085374863819673	1.862253749610351e-6
0.010996099610307754	1.8622537517001157e-6
0.011140317568649662	1.8622537538450564e-6
0.01128642699944502	1.862253756046629e-6
0.011434452710062368	1.8622537583063292e-6
0.011584419833228153	1.8622537606256924e-6
0.011736353831293936	1.8622537630062926e-6
0.011890280500559541	1.8622537654497474e-6
0.012046225975652896	1.862253767957716e-6
0.01220421673396736	1.8622537705319021e-6
0.012364279600157206	1.862253773174054e-6
0.012526441750692075	1.8622537758859658e-6
0.012690730718471176	1.8622537786694794e-6
0.012857174397497981	1.8622537815264857e-6
0.01302580104761625	1.8622537844589246e-6
0.013196639299308161	1.8622537874687882e-6
0.013369718158555375	1.8622537905581204e-6
0.013545067011763851	1.8622537937290198e-6
0.013722715630753238	1.8622537969836393e-6
0.013902694177811743	1.8622538003241903e-6
0.014085033210817267	1.8622538037529405e-6
0.014269763688425696	1.8622538072722194e-6
0.014456916975327272	1.8622538108844168e-6
0.014646524847571873	1.8622538145919866e-6
0.01483861949796416	1.8622538183974466e-6
0.015033233541529458	1.8622538223033807e-6
0.015230400021051353	1.8622538263124429e-6
0.015430152412681895	1.862253830427355e-6
0.01563252463162537	1.8622538346509122e-6
0.015837551037896663	1.862253838985983e-6
0.016045266442155107	1.8622538434355118e-6
0.016255706111614844	1.8622538480025202e-6
0.01646890577603272	1.8622538526901104e-6
0.0166849016337747	1.8622538575014661e-6
0.016903730357961857	1.8622538624398548e-6
0.01712542910269696	1.8622538675086308e-6
0.017350035509372724	1.862253872711236e-6
0.01757758771306282	1.862253878051205e-6
0.017808124348996663	1.8622538835321637e-6
0.018041684559119135	1.8622538891578347e-6
0.01827830799873638	1.8622538949320392e-6
0.018518034843248706	1.8622539008586985e-6
0.018760905794971822	1.8622539069418382e-6
0.01900696209004752	1.8622539131855897e-6
0.019256245505445024	1.8622539195941934e-6
0.019508798366054122	1.862253926172002e-6
0.01976466355187136	1.8622539329234829e-6
0.020023884505280476	1.8622539398532216e-6
0.020286505238428326	1.8622539469659248e-6
0.020552570340697497	1.862253954266423e-6
0.020822124986277037	1.8622539617596743e-6
0.021095214941832363	1.8622539694507686e-6
0.021371886574275824	1.8622539773449287e-6
0.021652186858639164	1.862253985447517e-6
0.02193616338604923	1.8622539937640354e-6
0.022223864371808306	1.8622540023001334e-6
0.022515338663580377	1.862254011061608e-6
0.022810635749684827	1.86225402005441e-6
0.023109805767498857	1.8622540292846462e-6
0.023412899511970075	1.862254038758587e-6
0.023719968444240874	1.8622540484826657e-6
0.02403106470038575	1.8622540584634873e-6
0.024346241100263316	1.8622540687078303e-6
0.024665551156484382	1.8622540792226523e-6
0.024989049083497656	1.8622540900150946e-6
0.02531678980679462	1.8622541010924875e-6
0.02564882897223511	1.8622541124623541e-6
0.025985222955495234	1.8622541241324168e-6
0.02632602887163917	1.862254136110602e-6
0.026671304584816494	1.862254148405044e-6
0.027021108718086773	1.8622541610240934e-6
0.027375500663372916	1.8622541739763211e-6
0.027734540591545107	1.8622541872705236e-6
0.028098289462636993	1.8622542009157297e-6
0.028466809036195858	1.862254214921207e-6
0.028840161881768547	1.8622542292964683e-6
0.029218411389524898	1.8622542440512764e-6
0.02960162178102055	1.8622542591956523e-6
0.02998985812010084	1.8622542747398819e-6
0.0303831863239478	1.8622542906945225e-6
0.030781673174271888	1.8622543070704097e-6
0.031185386328650734	1.862254323878666e-6
0.03159439433201637	1.8622543411307071e-6
0.032008766628293245	1.8622543588382498e-6
0.032428573572188854	1.8622543770133212e-6
0.032853886441138985	1.8622543956682654e-6
0.033284777447409646	1.8622544148157513e-6
0.03372131975035772	1.862254434468785e-6
0.03416358746885241	1.862254454640713e-6
0.03461165569385964	1.8622544753452365e-6
0.035065600501191355	1.862254496596417e-6
0.03552549896442228	1.8622545184086878e-6
0.035991429167975895	1.8622545407968634e-6
0.03646347022038207	1.8622545637761498e-6
0.03694170226770865	1.8622545873621526e-6
0.037426206507169095	1.8622546115708925e-6
0.03791706520090873	1.8622546364188105e-6
0.03841436168997163	1.8622546619227828e-6
0.03891818040845087	1.8622546881001313e-6
0.03942860689782421	1.8622547149686349e-6
0.03994572782147786	1.8622547425465424e-6
0.040469630979420766	1.8622547708525833e-6
0.04100040532319184	1.8622547999059832e-6
0.041538140970962666	1.8622548297264744e-6
0.04208292922283836	1.8622548603343094e-6
0.042634862576359046	1.8622548917502775e-6
0.04319403474220469	1.8622549239957148e-6
0.04376054066010587	1.8622549570925224e-6
0.044334476514963216	1.8622549910631785e-6
0.04491593975317832	1.8622550259307551e-6
0.04550502909919873	1.8622550617189337e-6
0.04610184457228008	1.8622550984520203e-6
0.04670648750346794	1.8622551361549639e-6
0.047319060552802425	1.862255174853371e-6
0.04793966772674846	1.862255214573525e-6
0.048568414395854666	1.8622552553424028e-6
0.049205407312643806	1.8622552971876935e-6
0.04985075462973789	1.862255340137818e-6
0.05050456591822102	1.8622553842219464e-6
0.05116695218624304	1.86225542947002e-6
0.05183802589786719	1.8622554759127709e-6
0.05251790099216493	1.862255523581741e-6
0.05320669290256128	1.8622555725093069e-6
0.05390451857643379	1.862255622728698e-6
0.05461149649496858	1.8622556742740235e-6
0.05532774669327687	1.8622557271802911e-6
0.0560533907807752	1.8622557814834343e-6
0.056788551961833134	1.8622558372203342e-6
0.05753335505669157	1.8622558944288456e-6
0.05828792652265556	1.8622559531478245e-6
0.059052394475565054	1.862256013417151e-6
0.05982688871154702	1.8622560752777586e-6
0.060611540729053275	1.862256138771662e-6
0.06140648375118699	1.8622562039419853e-6
0.06221185274832213	1.8622562708329903e-6
0.0630277844610196	1.8622563394901086e-6
0.06385441742324388	1.8622564099599705e-6
0.06469189198588422	1.8622564822904375e-6
0.06554035034058425	1.8622565565306353e-6
0.0663999365438842	1.862256632730987e-6
0.06727079654167968	1.8622567109432458e-6
0.06815307819400124	1.8622567912205316e-6
0.06904693130011912	1.8622568736173683e-6
0.06995250762397695	1.8622569581897177e-6
0.07086996091995926	1.86225704499502e-6
0.0717994469589968	1.8622571340922316e-6
0.07274112355501436	1.862257225541866e-6
0.07369515059172532	1.8622573194060342e-6
0.07466169004977781	1.8622574157484867e-6
0.07564090603425667	1.8622575146346587e-6
0.0766329648025464	1.862257616131711e-6
0.07763803479255908	1.8622577203085793e-6
0.07865628665133316	1.8622578272360185e-6
0.07968789326400676	1.8622579369866522e-6
0.08073302978317122	1.8622580496350218e-6
0.08179187365860965	1.8622581652576354e-6
0.0828646046674254	1.8622582839330224e-6
0.08395140494456575	1.8622584057417863e-6
0.08505245901374593	1.862258530766657e-6
0.08616795381877869	1.8622586590925494e-6
0.08729807875531483	1.8622587908066216e-6
0.0884430257029999	1.8622589259983312e-6
0.08960298905805271	1.8622590647594994e-6
0.09077816576627123	1.8622592071843706e-6
0.09196875535647125	1.8622593533696778e-6
0.09317495997436352	1.862259503414709e-6
0.09439698441687541	1.8622596574213718e-6
0.0956350361669226	1.8622598154942672e-6
0.09688932542863672	1.862259977740756e-6
0.09816006516305528	1.862260144271034e-6
0.0994474711242794	1.8622603151982077e-6
0.10075176189610589	1.862260490638369e-6
0.10207315892913983	1.8622606707106744e-6
0.10341188657839377	1.8622608555374284e-6
0.10476817214138018	1.8622610452441634e-6
0.10614224589670335	1.862261239959727e-6
0.10753434114315774	1.8622614398163686e-6
0.10894469423933839	1.8622616449498288e-6
0.11037354464377201	1.862261855499434e-6
0.11182113495557336	1.862262071608188e-6
0.11328771095563528	1.8622622934228702e-6
0.11477352164835895	1.8622625210941367e-6
0.11627881930393136	1.862262754776621e-6
0.11780385950115736	1.8622629946290384e-6
0.11934890117085338	1.8622632408142977e-6
0.12091420663981037	1.862263493499606e-6
0.1225000416753332	1.8622637528565876e-6
0.12410667553036432	1.8622640190613972e-6
0.12573438098919926	1.8622642922948412e-6
0.12738343441380154	1.8622645727424993e-6
0.12905411579072518	1.8622648605948526e-6
0.1307467087786526	1.862265156047411e-6
0.13246150075655588	1.8622654593008459e-6
0.1341987828724898	1.8622657705611287e-6
0.1359588500930247	1.8622660900396688e-6
0.13774200125332786	1.8622664179534578e-6
0.13954853910790163	1.8622667545252155e-6
0.14137877038198646	1.862267099983545e-6
0.14323300582363946	1.8622674545630834e-6
0.14511156025649455	1.8622678185046644e-6
0.14701475263321534	1.8622681920554806e-6
0.1489429060896489	1.8622685754692514e-6
0.15089634799968982	1.8622689690063959e-6
0.1528754100308636	1.8622693729342092e-6
0.15488042820063955	1.862269787527045e-6
0.15691174293348156	1.8622702130665003e-6
0.15896969911864778	1.862270649841608e-6
0.16105464616874793	1.8622710981490326e-6
0.16316693807906876	1.862271558293273e-6
0.16530693348767755	1.862272030586868e-6
0.16747499573631403	1.8622725153506082e-6
0.1696714929320806	1.8622730129137561e-6
0.171896798009942	1.8622735236142672e-6
0.17415128879604458	1.8622740477990216e-6
0.17643534807186578	1.8622745858240588e-6
0.1787493636392053	1.8622751380548195e-6
0.18109372838602844	1.8622757048663943e-6
0.18346884035317332	1.8622762866437784e-6
0.18587510280193184	1.862276883782133e-6
0.1883129242825192	1.862277496687053e-6
0.19078271870343924	1.8622781257748445e-6
0.19328490540176055	1.8622787714728065e-6
0.19581990921431427	1.8622794342195201e-6
0.19838816054982536	1.8622801144651499e-6
0.20099009546199023	1.862280812671745e-6
0.20362615572351253	1.8622815293135572e-6
0.20629678890111014	1.8622822648773607e-6
0.20900244843150584	1.8622830198627849e-6
0.2117435936984145	1.862283794782651e-6
0.2145206901105403	1.862284590163324e-6
0.21733420918059657	1.8622854065450667e-6
0.22018462860536214	1.8622862444824098e-6
0.22307243234678784	1.8622871045445274e-6
0.22599811071416637	1.8622879873156228e-6
0.2289621604473802	1.8622888933953283e-6
0.23196508480124106	1.8622898233991094e-6
0.2350073936309358	1.8622907779586846e-6
0.23808960347859293	1.862291757722456e-6
0.24121223766098332	1.8622927633559462e-6
0.24437582635837382	1.8622937955422548e-6
0.24758090670454347	1.86229485498252e-6
0.2508280228779816	1.8622959423963958e-6
0.2541177261942821	1.862297058522541e-6
0.2574505751997488	1.8622982041191212e-6
0.26082713576622935	1.8622993799643236e-6
0.2642479811871922	1.862300586856888e-6
0.2677136922750641	1.8623018256166456e-6
0.2712248574598439	1.8623030970850807e-6
0.2747820728890099	1.8623044021258992e-6
0.27838594252873766	1.8623057416256178e-6
0.2820370782664448	1.862307116494165e-6
0.28573610001468125	1.8623085276655007e-6
0.28948363581638203	1.8623099760982504e-6
0.29328032195149994	1.8623114627763578e-6
0.2971268030450373	1.8623129887097514e-6
0.3010237321764945	1.8623145549350335e-6
0.3049717709907536	1.8623161625161841e-6
0.308971589810417	1.862317812545282e-6
0.3130238677496187	1.8623195061432517e-6
0.31712929282932784	1.8623212444606209e-6
0.3212885620941666	1.862323028678305e-6
0.3255023817307578	1.86232486000841e-6
0.3297714671876259	1.8623267396950564e-6
0.33409654329667027	1.8623286690152232e-6
0.3384783443962318	1.862330649279619e-6
0.3429176144557731	1.8623326818335721e-6
0.34741510720219476	1.8623347680579441e-6
0.3519715862478073	1.8623369093700703e-6
0.3565878252199823	1.8623391072247234e-6
0.36126460789250364	1.8623413631151011e-6
0.36600272831864156	1.8623436785738438e-6
0.37080299096597175	1.8623460551740763e-6
0.3756662108529629	1.8623484945304757e-6
0.380593213687356	1.862350998300372e-6
0.38558483600635746	1.8623535681848743e-6
0.3906419253186722	1.8623562059300282e-6
0.3957653402483987	1.862358913328002e-6
0.4009559506808115	1.862361692218308e-6
0.40621463791005635	1.8623645444890521e-6
0.4115422947887799	1.8623674720782187e-6
0.41693982587972644	1.8623704769749898e-6
0.42240814760931844	1.8623735612210964e-6
0.4279481884232537	1.8623767269122105e-6
0.43356088894414246	1.8623799761993671e-6
0.4392472021312123	1.8623833112904322e-6
0.44500809344210734	1.8623867344516017e-6
0.4508445409968098	1.8623902480089452e-6
