# M_4 [GeV] vs ONB coefficient [GeV^-2]. 90%CL from NOMAD data. Summarized in arXiv: 2105.09699. Source arXiv: 1707.08573
0.0041028109520162784	3.6238762600304177e-7
0.005122507908456514	2.9298484680798126e-7
0.005628285715373194	2.690028979932479e-7
0.006173085852727574	2.4891483148028443e-7
0.006820057557565049	2.2279183796586277e-7
0.007507476680065204	2.027644475471542e-7
0.008264183348306784	1.8960301456062681e-7
0.009097161313305334	1.723560081686352e-7
0.010014098244475083	1.5834695132857222e-7
0.011050987081757484	1.4668050241327297e-7
0.012169915659037887	1.3054174016677278e-7
0.013357639047521878	1.2049750379535602e-7
0.014704005472616938	1.1109521644775273e-7
0.016186077207922447	1.0218566650109136e-7
0.017817532499476083	9.410137033150454e-8
0.01961342827491891	8.63511018554084e-8
0.021590339105973282	7.933250408821655e-8
0.023766510177469044	7.288437633888406e-8
0.026162025674690146	6.703923725831951e-8
0.02879899414311212	6.151782895837328e-8
0.03170175253124126	5.638474137259632e-8
0.034897090799694774	5.180180251717733e-8
0.03841449916947093	4.7423556556948256e-8
0.042286440291297606	4.3466504210374445e-8
0.04654864884794762	3.983963088052458e-8
0.051240461354592905	3.647241787858639e-8
0.05640517920097032	3.342913565283491e-8
0.06209046828592621	3.067588375734605e-8
0.06834879893262157	2.808318316372247e-8
0.07523793014443754	2.580058847282222e-8
0.08282144267084542	2.3703522555229136e-8
0.09116932580298086	2.1802561155897025e-8
0.10035862331453911	2.0101331350758582e-8
0.11047414450947092	1.857653963166592e-8
0.12160924693883665	1.7187636398034518e-8
0.13487217636179036	1.589123736978502e-8
0.14433571532166506	1.5099408509708365e-8
0.15664576367901017	1.4102966546332044e-8
0.1724346763828552	1.309470879860103e-8
0.18981501268166218	1.215853401884132e-8
0.20894717811481894	1.1276004491150977e-8
0.23000774609627972	1.0445227963652625e-8
0.25319108753514513	9.675660141701005e-9
0.27871116471179724	8.973350491399806e-9
0.3068035059655249	8.331822333027137e-9
0.3377273794183016	7.736158690743483e-9
0.371768185796319	7.225492520036506e-9
0.4079025123874413	6.83449582789384e-9
0.45048893276277335	6.20732042238762e-9
0.49589539806632765	5.543897641303165e-9
0.560364198490885	5.190150792525554e-9
0.6168454029903725	4.87616933036464e-9
0.6790195594491477	4.619095960520314e-9
0.7474604817987284	4.380730476970704e-9
0.8227998208240537	4.203872319351761e-9
0.9057328937563737	4.057973594741729e-9
0.9970251014526137	3.954209390694489e-9
1.0975189923862687	3.954209390694489e-9
1.2081420386443689	3.954209390694489e-9
1.329915195696284	4.0389069085187476e-9
1.4639623249336464	4.208824922285921e-9
1.6115205659433414	4.559657354774691e-9
1.7739517542407097	5.081311223004061e-9
1.9588529978110696	5.9547715857534784e-9
2.1247040283103247	7.1506755383374786e-9
2.225971035261369	8.474546489216577e-9
2.4149401792230125	1.1098292414731397e-8
2.5374135903407096	1.3017845960773942e-8
2.6304557087284985	1.4847893286375022e-8
2.876933439422203	1.9501390905848535e-8
3.090850758322524	2.541116784959081e-8
3.366479059909429	3.4651268880186415e-8
3.63171313565046	4.699286101293328e-8
3.9182200312149265	6.149298252838226e-8
4.193824795229436	8.08522625760653e-8
4.568488257689444	1.1273183295600451e-7
4.88371177577825	1.4914347050675126e-7
5.191467939611677	1.9288401655561714e-7
5.567007133006854	2.552629833076522e-7
6.128126614187593	3.631673227700847e-7
0.0041028109520162784	3.6238762600304177e-7
