# M_4 (GeV) \vert U_{e 4}\vert^2. 90%CL. Figure 7 of arXiv: 2007.03701 (v4).
0.010033068091913813	0.0001240345370113333
0.010454127039784409	0.00010512594282708396
0.010945035866198096	0.00008838091278878979
0.011601164903786428	0.00006936668888696787
0.012211780951235091	0.000056312084155608554
0.013091444855488311	0.000041829667901729165
0.013521191334087882	0.00003684674221557734
0.0139305520009671	0.00003355676465048925
0.014663773075932796	0.00002721609911996418
0.015720063876313865	0.000020216626765629334
0.01623609875014019	0.000017808337294279356
0.016990958466542472	0.000014884750543861861
0.017513158053718666	0.000013153767302607312
0.018043377461379677	0.000012035256319874357
0.018978811916757533	9.773824652061703e-6
0.020086384746008778	7.84573212686219e-6
0.02166629041854146	5.82216436036654e-6
0.022666671875569155	4.822896985558744e-6
0.023410739663932024	4.159794977006977e-6
0.024119511233253895	3.7919076595232372e-6
0.025252124306361586	3.072548225582047e-6
0.026053650976404767	2.802774550095482e-6
0.027191483943022943	2.3593580397488027e-6
0.028419375661511474	1.973635112214806e-6
0.02975390338442023	1.6304959444567625e-6
0.030654717331265208	1.4591451151285165e-6
0.03209421306839039	1.1795798336797083e-6
0.033112914204828335	1.063510615940807e-6
0.034559044170919255	8.936187913098225e-7
0.036119634399288884	7.461319253201841e-7
0.037787359320798575	6.049174446266722e-7
0.039027786545061914	5.301198221105118e-7
0.040266565960571855	4.77956677825222e-7
0.04204381663462578	4.0258881407359704e-7
0.04378450249204575	3.3893623040641247e-7
0.045761688736120465	2.826012406888792e-7
0.04782815920683379	2.3562975590756694e-7
0.049987945731308894	1.9646545688801115e-7
0.05224526220275796	1.638107020972197e-7
0.05452837101392097	1.3698730961629714e-7
0.05707030059072239	1.1393491441070998e-7
0.05970536498592211	9.220574859889063e-8
0.061618981726216056	8.082089366735307e-8
0.06359393179944574	7.084175284563745e-8
0.06563218100035466	6.218889135598809e-8
0.06778665661240964	5.431795912930418e-8
0.0699382701752423	4.895194727862036e-8
0.07306355155039841	4.076058068534458e-8
0.07540531154776446	3.500406004067624e-8
0.0778221272982235	3.086850059603708e-8
0.08031640441382741	2.704890020177944e-8
0.08295291186977499	2.382672162952177e-8
0.08546435176316465	2.1658860076429375e-8
0.08942924032268101	1.8081936803516896e-8
0.09376172141043516	1.5219162368832914e-8
0.09890811183419414	1.2884924452656781e-8
0.10404935654653881	1.0972148452527176e-8
0.1094362629327388	9.635619852028645e-9
0.11185784126624913	9.039726710594244e-9
0.11578341855859162	8.852848138563002e-9
0.11944772823577596	8.843657326891623e-9
0.12349370149564141	9.41464436167191e-9
0.12697784986218105	1.0914130532887488e-8
0.12907692764417208	1.2701771964014037e-8
0.13071610044273954	1.4683075633164385e-8
0.13202318884376066	1.6847328140031332e-8
0.13327864422342886	1.9384721049079526e-8
0.1344501591370229	2.277105385354636e-8
0.13559494748854287	2.7326594265823202e-8
0.13713135854153358	3.1754715959996835e-8
0.1391424562063425	3.976589348362774e-8
0.14207144614869416	3.026802264113467e-8
0.14306568498541944	2.535227081025005e-8
0.1443350487546576	2.188889257640411e-8
0.14601435749509034	1.8736258571733875e-8
0.14811762991488742	1.6074756957387134e-8
0.14945875875731207	1.3785356367559719e-8
0.1514568453920536	1.2004883677415316e-8
0.15428382458786596	1.0346640605332224e-8
0.15709011217324503	8.907679894990321e-9
0.1594644570275972	7.79825969456953e-9
0.16325661552497597	6.5813758265113076e-9
0.1660494871399956	5.728845661767054e-9
0.1701734706848796	4.873488180838628e-9
0.17307397302615538	4.240433118155188e-9
0.17673934774433472	3.732978471304245e-9
0.18016039991026572	3.288877965033305e-9
0.18421603798631198	2.898623762919713e-9
0.18884508368339725	2.550363965912618e-9
0.1936718989140939	2.2388535182064387e-9
0.19873269572301774	1.9647792055749836e-9
0.20434244338575314	1.721995870666363e-9
0.2102275483831116	1.5101394206847058e-9
0.21642584150816355	1.3194060695647034e-9
0.22306600198927518	1.1621340450466368e-9
0.22979539325214227	1.0196989995662085e-9
0.23700310304626648	8.977079425779341e-10
0.24478308837833665	7.910088094889364e-10
0.252552738619657	7.215572213571818e-10
0.2638938783954916	6.081010692126824e-10
0.2766820949212144	5.144549504556008e-10
0.2900900245031975	4.3911514427522395e-10
0.3041476982463505	3.7662977567405733e-10
0.31893789428809927	3.2318184628418297e-10
0.33040046480688956	2.937397331429835e-10
0.34485509069296866	2.518213470972599e-10
0.3550504482026607	2.3794720699466054e-10
0.36308915985916246	2.201363313532035e-10
0.3853687072026153	1.9562728687082703e-10
0.40851989505534464	1.712053297747016e-10
0.42484008283207836	1.613247572640084e-10
0.4409226471965593	1.59407239170172e-10
0.4550546596053103	1.6525047113382365e-10
0.46583581006719293	1.9254126968643737e-10
0.4724111075131567	2.252442414766221e-10
0.4760527222343299	2.629841298091215e-10
0.4793275819506053	3.0582993544622867e-10
0.4822496358988267	3.6690439770124383e-10
0.48503195871536503	4.695695799330292e-10
0.4866669032591602	5.882885944678292e-10
0.4875248906981213	7.169268515035084e-10
0.48925826857076565	8.370312151511859e-10
0.4896442998291734	9.97188185717201e-10
0.49101932382567415	1.1967351622679906e-9
0.4911914731047516	1.4385053097243278e-9
0.49163441986981865	1.8368774142737217e-9
0.4927435351233326	2.4522425955819942e-9
0.4935214042366575	2.754783972710189e-9
0.4935214042366575	3.1476016444662555e-9
0.494628910056846	3.796306437151187e-9
0.4950808283488695	4.6386700552781486e-9
0.49586238722792314	5.631192090009148e-9
0.49664517991415824	6.827801848084029e-9
0.49664517991415824	7.801410396611147e-9
0.49664517991415824	8.913850391459615e-9
0.49664517991415824	1.018491846497909e-8
0.49664517991415824	1.1637234144927817e-8
0.49664517991415824	1.3296642384476067e-8
0.49742920835532334	1.5214447533893463e-8
0.49742920835532334	1.7288454150560568e-8
0.49742920835532334	1.975369657064167e-8
0.49742920835532334	2.257046956348774e-8
0.49742920835532334	2.578889953556568e-8
0.49742920835532334	2.9466260654646705e-8
0.49742920835532334	3.366799408288653e-8
0.49742920835532334	3.8468872547169597e-8
0.4978029901335291	4.665586216890085e-8
0.4982144745022418	5.6923741139409415e-8
0.4982144745022418	6.504076653361088e-8
0.4982144745022418	7.431523695744864e-8
0.4982144745022418	8.491219797029554e-8
0.4982144745022418	9.70202297581989e-8
0.4982144745022418	1.1085480304757376e-7
0.4990009803088167	1.2684364489012027e-7
0.4990009803088167	1.4413474653533156e-7
0.5207865123894811	1.2968625896863395e-7
0.5437973147538843	1.137293223991558e-7
0.5618466023710865	1.0556680283888714e-7
0.5802634017993049	9.92658684647406e-8
0.5997859466316567	9.269590085576643e-8
0.6193184876101211	8.681567505500596e-8
0.6416268277282895	8.075970339497973e-8
0.6621480888883732	7.428522377304971e-8
0.6839626712178858	6.9652494948324e-8
0.7043468350649605	6.473606036858518e-8
0.7274954074827257	6.097622802748762e-8
0.7482113433859718	5.6579873309091716e-8
0.7482113433859718	5.6579873309091716e-8
0.7717592998865885	5.30887324707579e-8
0.8014934071722264	4.867261731386811e-8
0.8434136931325148	4.126630377007487e-8
0.8870794183281526	3.477416436945633e-8
0.9330058319290006	2.920368367879153e-8
0.9782061501583783	2.450016600404549e-8
1.0256097206052506	2.082791430479932e-8
1.098841009161625	1.677202690786377e-8
1.1289038711740054	1.529942143120384e-8
1.1626625029948283	1.4315776031265657e-8
1.1914949712358294	1.3048751777911188e-8
1.2271253212393984	1.2243218385785632e-8
1.2606978753184135	1.1239906802349744e-8
1.299425288150539	1.0559983604488101e-8
1.3375281587434653	9.780075886194195e-9
1.3804366870356366	9.40379591228546e-9
1.4312652580891603	9.000687504534292e-9
1.4818061915356686	8.688910935435121e-9
1.5341318297664284	8.50424196366756e-9
1.5883051943948074	8.551215447749847e-9
1.6479869700938556	8.883986997977993e-9
1.6990696056757109	9.806898469465073e-9
1.747350240174782	1.1495319783319392e-8
1.780539969158746	1.333929586720101e-8
1.803828730804558	1.5465115453671426e-8
1.8260499568924378	1.7811124841680192e-8
1.8488226504189837	2.0751134338886816e-8
1.8651424421467648	2.4513600938819004e-8
1.8854262322524473	2.8671423903006828e-8
1.8965052368671935	3.370908409586855e-8
1.9072195152317426	4.008845916023256e-8
1.9215633521384388	4.827082385290524e-8
1.925355942790988	5.709960311902714e-8
1.925355942790988	5.709960311902714e-8
1.9328463270086682	6.68167805912929e-8
1.9328463270086682	7.939279116817206e-8
1.9446870865584527	9.698104686428118e-8
1.946119140531014	1.1261502096968288e-7
1.946733200725373	1.2407941916344696e-7
1.949123055018655	1.4887838340459228e-7
1.9559673884876627	1.7926743547982905e-7
1.9559673884876627	2.0370485566941137e-7
1.9559673884876627	2.3275209419052856e-7
1.9528844692766334	2.662344561081165e-7
1.9528844692766334	3.041980860063783e-7
1.9528844692766334	3.4757512939033455e-7
1.9528844692766334	3.9713751048445037e-7
1.9528844692766334	4.5376722583814647e-7
1.9528844692766334	5.184720400590552e-7
1.9528844692766334	5.92403419675094e-7
1.9528844692766334	6.768770242707251e-7
1.9528844692766334	7.73396119551222e-7
1.9528844692766334	8.836783289864692e-7
1.9559673884876627	1.008574474232381e-6
1.9528844692766334	1.153662129338273e-6
1.9528844692766334	1.3181682670714484e-6
1.9528844692766334	1.5061321127970056e-6
1.9498064092421514	1.7232173323376882e-6
1.9498064092421514	1.9689390394204538e-6
1.9498064092421514	2.249699366530189e-6
1.9528844692766334	2.571706315643375e-6
1.9528844692766334	2.9259814083453937e-6
1.9528844692766334	3.3432109318992872e-6
1.9528844692766334	3.819935185948905e-6
1.9528844692766334	4.3646378054168405e-6
1.9543225597445073	5.146642958615869e-6
1.9510370506451944	6.087172421597986e-6
1.9498064092421514	6.896041190883794e-6
1.946733200725373	7.846463524482327e-6
1.9487814677235706	9.084719864479615e-6
1.9516344958212009	0.000010416906758034086
1.944747235679984	0.000012405454090638532
1.9325824996233893	0.000015249195092051449
1.9141747580107062	0.000018070321380630013
1.8947637024473156	0.000020840421539551434
1.8651101118369189	0.00002402396583127404
1.8248159087631997	0.00002766341361071213
1.7849590074182016	0.00003202114360638763
1.7459726446174986	0.000037033263301814016
1.7078378064053796	0.000042829906627941314
1.6705358941213644	0.00004961969828795348
1.634445310443513	0.00005700750098046817
1.6034089524415667	0.00006492934379212364
1.5729619414871328	0.00007411304418683846
1.5389793645361716	0.00008530651844360341
1.505365590998937	0.00009865914839633692
1.472485996098175	0.00011410180300260855
1.4403245441968946	0.00013207589891507337
1.4088655499020981	0.00015288139727139875
1.3780936704148814	0.00017681120664196154
1.349630530290589	0.00020964978462611623
1.3156948048593038	0.00024064981787285736
1.2856897657600221	0.0002797365616093691
1.2576082426276955	0.0003238025768367973
1.2301400649247494	0.00037481017198088797
1.2032718362049186	0.00043347745345352054
1.1769904526217705	0.0005013276498326477
1.1512830965378653	0.000580802730769354
1.1264105516983833	0.0006675886649351239
1.1050212271879214	0.0007607713016903921
1.084038062937876	0.0008674993991206086
1.0606182929358585	0.0009985199542517113
1.0374526911547461	0.0011548136079231833
1.0147930632093252	0.0013355711754843723
0.9926283578208589	0.0015459594758824885
0.9709477650882309	0.001789489579395931
0.9497407112158779	0.0020695900054113624
0.9289968533568582	0.002393533239765757
0.9087060745685729	0.002772978195611662
0.889074211082012	0.003187328009030561
0.872191648337866	0.003632218169222612
0.855629667296864	0.004141779628482758
0.8371444768777294	0.0047673227316879065
0.8188599010658931	0.0055135294397200335
0.8006378376085724	0.00642770400442375
0.7815810944871799	0.007341066523475702
0.7695475265117323	0.008482384170140182
0.7538639805693079	0.009415114224034633
