# m4 (GeV) Utau^4
0.2665104764654941 0.3888155180308322
0.30599496872071963 0.29809793965649084
0.3532965816593754 0.22153570311749832
0.4152494788708234 0.16388728793613488
0.5200840885219052 0.10487549811077375
0.6609147181486282 0.06581306148905662
0.899864998313057 0.03761693625841476
1.2386249805985659 0.02069879355510006
1.4839817889675633 0.015570684047538336
1.7551614845277372 0.01228926972003436
2.222348120297896 0.010328876635664829
2.5788647827168134 0.010299603658100604
2.8138898963592895 0.01156092555284477
3.0199517204019943 0.014677992676221711
3.141541905014213 0.020917646557571414
3.268027589410125 0.03665241237079881
